z [Mm]	log(T) [K]
-2.513907909393310547e+00	4.319807052612304688e+00	1.111672027036547661e-03
-2.491873979568481445e+00	4.317502975463867188e+00	1.024561584927141666e-03
-2.469969987869262695e+00	4.315493106842041016e+00	1.003409386612474918e-03
-2.448189973831176758e+00	4.313532829284667969e+00	1.027233316563069820e-03
-2.426533937454223633e+00	4.311542987823486328e+00	1.053600106388330460e-03
-2.405002117156982422e+00	4.309566497802734375e+00	1.068604644387960434e-03
-2.383591890335083008e+00	4.307590961456298828e+00	1.087605254724621773e-03
-2.362303972244262695e+00	4.305625915527343750e+00	1.105435425415635109e-03
-2.341133117675781250e+00	4.303669452667236328e+00	1.126004150137305260e-03
-2.320080995559692383e+00	4.301726818084716797e+00	1.154592726379632950e-03
-2.299148082733154297e+00	4.299793243408203125e+00	1.180029241368174553e-03
-2.278328895568847656e+00	4.297864913940429688e+00	1.197343226522207260e-03
-2.257627010345458984e+00	4.295943260192871094e+00	1.209593843668699265e-03
-2.237036943435668945e+00	4.294026851654052734e+00	1.223183353431522846e-03
-2.216556072235107422e+00	4.292115211486816406e+00	1.241705729626119137e-03
-2.196188926696777344e+00	4.290206909179687500e+00	1.264631631784141064e-03
-2.175932884216308594e+00	4.288298130035400391e+00	1.287503982894122601e-03
-2.155783891677856445e+00	4.286397933959960938e+00	1.317007699981331825e-03
-2.135741949081420898e+00	4.284502506256103516e+00	1.339156180620193481e-03
-2.115809917449951172e+00	4.282616615295410156e+00	1.359987654723227024e-03
-2.095980882644653320e+00	4.280726432800292969e+00	1.377061242237687111e-03
-2.076252937316894531e+00	4.278841018676757812e+00	1.398434164002537727e-03
-2.056631088256835938e+00	4.276968479156494141e+00	1.423892914317548275e-03
-2.037111043930053711e+00	4.275091171264648438e+00	1.452028285712003708e-03
-2.017689943313598633e+00	4.273211002349853516e+00	1.484727603383362293e-03
-1.998368978500366211e+00	4.271337985992431641e+00	1.516081276349723339e-03
-1.979146122932434082e+00	4.269464492797851562e+00	1.543280784972012043e-03
-1.960023045539855957e+00	4.267596721649169922e+00	1.572338864207267761e-03
-1.940995931625366211e+00	4.265729904174804688e+00	1.600600196979939938e-03
-1.922062993049621582e+00	4.263864517211914062e+00	1.634301384910941124e-03
-1.903223991394042969e+00	4.262005805969238281e+00	1.666405703872442245e-03
-1.884476900100708008e+00	4.260141849517822266e+00	1.702146255411207676e-03
-1.865825057029724121e+00	4.258273601531982422e+00	1.755230012349784374e-03
-1.847259044647216797e+00	4.256410121917724609e+00	1.804822240956127644e-03
-1.828788042068481445e+00	4.254556179046630859e+00	1.844052341766655445e-03
-1.810402989387512207e+00	4.252706050872802734e+00	1.878078677691519260e-03
-1.792106032371520996e+00	4.250850677490234375e+00	1.918145455420017242e-03
-1.773898839950561523e+00	4.249002456665039062e+00	1.963920192793011665e-03
-1.755774974822998047e+00	4.247160434722900391e+00	2.006150782108306885e-03
-1.737737059593200684e+00	4.245320320129394531e+00	2.046965062618255615e-03
-1.719782829284667969e+00	4.243479728698730469e+00	2.094940515235066414e-03
-1.701912045478820801e+00	4.241643905639648438e+00	2.140904311090707779e-03
-1.684123039245605469e+00	4.239810943603515625e+00	2.181179355829954147e-03
-1.666414022445678711e+00	4.237981319427490234e+00	2.220301423221826553e-03
-1.648784995079040527e+00	4.236146450042724609e+00	2.257032785564661026e-03
-1.631236910820007324e+00	4.234307765960693359e+00	2.303776564076542854e-03
-1.613765954971313477e+00	4.232470512390136719e+00	2.364922780543565750e-03
-1.596371054649353027e+00	4.230631828308105469e+00	2.428944222629070282e-03
-1.579053878784179688e+00	4.228791713714599609e+00	2.489089500159025192e-03
-1.561812043190002441e+00	4.226957321166992188e+00	2.543666400015354156e-03
-1.544644951820373535e+00	4.225128650665283203e+00	2.592864679172635078e-03
-1.527549862861633301e+00	4.223298072814941406e+00	2.645821776241064072e-03
-1.510529160499572754e+00	4.221461772918701172e+00	2.704520942643284798e-03
-1.493579983711242676e+00	4.219622135162353516e+00	2.781296381726861000e-03
-1.476701855659484863e+00	4.217782974243164062e+00	2.865531714633107185e-03
-1.459892988204956055e+00	4.215941429138183594e+00	2.952249720692634583e-03
-1.443155050277709961e+00	4.214099407196044922e+00	3.035290865227580070e-03
-1.426483035087585449e+00	4.212261676788330078e+00	3.110725898295640945e-03
-1.409880042076110840e+00	4.210426807403564453e+00	3.187000285834074020e-03
-1.393343091011047363e+00	4.208589553833007812e+00	3.260025288909673691e-03
-1.376871943473815918e+00	4.206745147705078125e+00	3.339353716000914574e-03
-1.360465168952941895e+00	4.204901695251464844e+00	3.426237963140010834e-03
-1.344123959541320801e+00	4.203063488006591797e+00	3.501008264720439911e-03
-1.327846050262451172e+00	4.201224327087402344e+00	3.572960617020726204e-03
-1.311630964279174805e+00	4.199378967285156250e+00	3.652598243206739426e-03
-1.295475959777832031e+00	4.197538375854492188e+00	3.736392362043261528e-03
-1.279384016990661621e+00	4.195693969726562500e+00	3.821367397904396057e-03
-1.263349056243896484e+00	4.193850994110107422e+00	3.899985458701848984e-03
-1.247375965118408203e+00	4.192008018493652344e+00	3.968879114836454391e-03
-1.231462001800537109e+00	4.190170764923095703e+00	4.035763442516326904e-03
-1.215603947639465332e+00	4.188323497772216797e+00	4.110614303499460220e-03
-1.199805021286010742e+00	4.186466217041015625e+00	4.200269933789968491e-03
-1.184061050415039062e+00	4.184602737426757812e+00	4.300761036574840546e-03
-1.168373942375183105e+00	4.182734966278076172e+00	4.413321148604154587e-03
-1.152740955352783203e+00	4.180858135223388672e+00	4.533769097179174423e-03
-1.137161970138549805e+00	4.178972721099853516e+00	4.662180785089731216e-03
-1.121634960174560547e+00	4.177085876464843750e+00	4.809063393622636795e-03
-1.106163024902343750e+00	4.175194740295410156e+00	4.959704354405403137e-03
-1.090741038322448730e+00	4.173296451568603516e+00	5.114329047501087189e-03
-1.075371980667114258e+00	4.171390533447265625e+00	5.280402023345232010e-03
-1.060052990913391113e+00	4.169477462768554688e+00	5.463541019707918167e-03
-1.044782996177673340e+00	4.167562007904052734e+00	5.638531409204006195e-03
-1.029562950134277344e+00	4.165639877319335938e+00	5.817016121000051498e-03
-1.014392018318176270e+00	4.163718700408935547e+00	6.000202149152755737e-03
-9.992688894271850586e-01	4.161796569824218750e+00	6.180504336953163147e-03
-9.841933250427246094e-01	4.159871101379394531e+00	6.354698445647954941e-03
-9.691634178161621094e-01	4.157942771911621094e+00	6.523405667394399643e-03
-9.541792869567871094e-01	4.156013488769531250e+00	6.687378045171499252e-03
-9.392408728599548340e-01	4.154073715209960938e+00	6.852129474282264709e-03
-9.243474602699279785e-01	4.152117252349853516e+00	7.040007971227169037e-03
-9.094967246055603027e-01	4.150157928466796875e+00	7.252244278788566589e-03
-8.946899771690368652e-01	4.148202419281005859e+00	7.449922617524862289e-03
-8.799251914024353027e-01	4.146236896514892578e+00	7.663222961127758026e-03
-8.652042150497436523e-01	4.144263267517089844e+00	7.890509441494941711e-03
-8.505243659019470215e-01	4.142285346984863281e+00	8.123030886054039001e-03
-8.358844518661499023e-01	4.140292644500732422e+00	8.372386917471885681e-03
-8.212857842445373535e-01	4.138284683227539062e+00	8.639959618449211121e-03
-8.067259192466735840e-01	4.136264324188232422e+00	8.918978273868560791e-03
-7.922062873840332031e-01	4.134236812591552734e+00	9.190779179334640503e-03
-7.777247428894042969e-01	4.132192611694335938e+00	9.475313127040863037e-03
-7.632812857627868652e-01	4.130125045776367188e+00	9.773562662303447723e-03
-7.488760948181152344e-01	4.128034591674804688e+00	1.012097485363483429e-02
-7.345060706138610840e-01	4.125929832458496094e+00	1.048245932906866074e-02
-7.201732993125915527e-01	4.123807907104492188e+00	1.084354985505342484e-02
-7.058748602867126465e-01	4.121662139892578125e+00	1.124493964016437531e-02
-6.916136145591735840e-01	4.119505405426025391e+00	1.165079139173030853e-02
-6.773867011070251465e-01	4.117333889007568359e+00	1.205617934465408325e-02
-6.631941199302673340e-01	4.115132808685302734e+00	1.251423731446266174e-02
-6.490340232849121094e-01	4.112911224365234375e+00	1.299538277089595795e-02
-6.349081993103027344e-01	4.110667705535888672e+00	1.349129341542720795e-02
-6.208137869834899902e-01	4.108399391174316406e+00	1.403025910258293152e-02
-6.067528128623962402e-01	4.106111526489257812e+00	1.457777619361877441e-02
-5.927224159240722656e-01	4.103793621063232422e+00	1.513934973627328873e-02
-5.787243247032165527e-01	4.101433277130126953e+00	1.574814692139625549e-02
-5.647549033164978027e-01	4.099046230316162109e+00	1.640588603913784027e-02
-5.508170127868652344e-01	4.096644878387451172e+00	1.707324944436550140e-02
-5.369086265563964844e-01	4.094213485717773438e+00	1.776823028922080994e-02
-5.230298042297363281e-01	4.091745376586914062e+00	1.851774938404560089e-02
-5.091795921325683594e-01	4.089239120483398438e+00	1.930870302021503448e-02
-4.953570067882537842e-01	4.086704254150390625e+00	2.012489922344684601e-02
-4.815630912780761719e-01	4.084146022796630859e+00	2.096260897815227509e-02
-4.677948653697967529e-01	4.081562519073486328e+00	2.181329019367694855e-02
-4.540553092956542969e-01	4.078959941864013672e+00	2.266993373632431030e-02
-4.403413832187652588e-01	4.076313018798828125e+00	2.356761507689952850e-02
-4.266532659530639648e-01	4.073595046997070312e+00	2.454664930701255798e-02
-4.129920005798339844e-01	4.070804595947265625e+00	2.561967074871063232e-02
-3.993543982505798340e-01	4.067947387695312500e+00	2.678550779819488525e-02
-3.857426047325134277e-01	4.065011978149414062e+00	2.802588045597076416e-02
-3.721547126770019531e-01	4.061984539031982422e+00	2.939486317336559296e-02
-3.585895895957946777e-01	4.058882236480712891e+00	3.083754517138004303e-02
-3.450492918491363525e-01	4.055661678314208984e+00	3.238452970981597900e-02
-3.315328955650329590e-01	4.052310466766357422e+00	3.408221900463104248e-02
-3.180375099182128906e-01	4.048869132995605469e+00	3.590069338679313660e-02
-3.045648932456970215e-01	4.045336723327636719e+00	3.785350546240806580e-02
-2.911143004894256592e-01	4.041703224182128906e+00	3.992029651999473572e-02
-2.776856124401092529e-01	4.037904739379882812e+00	4.211620613932609558e-02
-2.642768919467926025e-01	4.033911705017089844e+00	4.448967799544334412e-02
-2.508901953697204590e-01	4.029729843139648438e+00	4.702433943748474121e-02
-2.375244945287704468e-01	4.025295734405517578e+00	4.975261166691780090e-02
-2.241777926683425903e-01	4.020572662353515625e+00	5.272738263010978699e-02
-2.108501940965652466e-01	4.015570640563964844e+00	5.592769011855125427e-02
-1.975425928831100464e-01	4.010249614715576172e+00	5.937137454748153687e-02
-1.842550933361053467e-01	4.004582405090332031e+00	6.298861652612686157e-02
-1.709856986999511719e-01	3.998467683792114258e+00	6.679255515336990356e-02
-1.577333956956863403e-01	3.991794109344482422e+00	7.076933234930038452e-02
-1.445011943578720093e-01	3.984456777572631836e+00	7.493204623460769653e-02
-1.312842071056365967e-01	3.976384878158569336e+00	7.924775779247283936e-02
-1.180872991681098938e-01	3.967445373535156250e+00	8.358475565910339355e-02
-1.049055978655815125e-01	3.957407951354980469e+00	8.778721094131469727e-02
-9.174010157585144043e-02	3.945939302444458008e+00	9.161187708377838135e-02
-7.859178632497787476e-02	3.932687997817993164e+00	9.473898261785507202e-02
-6.545969098806381226e-02	3.917095661163330078e+00	9.655380994081497192e-02
-5.234380811452865601e-02	3.898984193801879883e+00	9.643413126468658447e-02
-3.924223035573959351e-02	3.878329753875732422e+00	9.341408312320709229e-02
-2.615687064826488495e-02	3.856057167053222656e+00	8.699165284633636475e-02
-1.308675948530435562e-02	3.833443880081176758e+00	7.691820710897445679e-02
-2.904981010942719877e-05	3.812121868133544922e+00	6.420524418354034424e-02
1.301245018839836121e-02	3.793549537658691406e+00	5.132859945297241211e-02
2.604058943688869476e-02	3.778082847595214844e+00	4.040669649839401245e-02
3.905349969863891602e-02	3.765266418457031250e+00	3.231498971581459045e-02
5.205490067601203918e-02	3.754383087158203125e+00	2.661352045834064484e-02
6.504110246896743774e-02	3.744887113571166992e+00	2.268026024103164673e-02
7.801579684019088745e-02	3.736426115036010742e+00	1.999283395707607269e-02
9.097719937562942505e-02	3.728767395019531250e+00	1.821659691631793976e-02
1.039261966943740845e-01	3.721776723861694336e+00	1.712242513895034790e-02
1.168627962470054626e-01	3.715370178222656250e+00	1.657476834952831268e-02
1.297869980335235596e-01	3.709491729736328125e+00	1.647733524441719055e-02
1.427007019519805908e-01	3.704088449478149414e+00	1.674166694283485413e-02
1.556030064821243286e-01	3.699129819869995117e+00	1.731272228062152863e-02
1.684927940368652344e-01	3.694578409194946289e+00	1.811611279845237732e-02
1.813721954822540283e-01	3.690400123596191406e+00	1.909184083342552185e-02
1.942410916090011597e-01	3.686558246612548828e+00	2.020237222313880920e-02
2.070984989404678345e-01	3.683017253875732422e+00	2.141346037387847900e-02
2.199463993310928345e-01	3.679735898971557617e+00	2.270101942121982574e-02
2.327837944030761719e-01	3.676686286926269531e+00	2.403449267148971558e-02
2.456116974353790283e-01	3.673835754394531250e+00	2.538612298667430878e-02
2.584291100502014160e-01	3.671165943145751953e+00	2.674428001046180725e-02
2.712368965148925781e-01	3.668658733367919922e+00	2.810598723590373993e-02
2.840352058410644531e-01	3.666295766830444336e+00	2.948168478906154633e-02
2.968249917030334473e-01	3.664049386978149414e+00	3.087092936038970947e-02
3.096061050891876221e-01	3.661905050277709961e+00	3.228209540247917175e-02
3.223777115345001221e-01	3.659843921661376953e+00	3.371664509177207947e-02
3.351416885852813721e-01	3.657868385314941406e+00	3.516262397170066833e-02
3.478960692882537842e-01	3.655969381332397461e+00	3.661821782588958740e-02
3.606438636779785156e-01	3.654107332229614258e+00	3.808923438191413879e-02
3.733820915222167969e-01	3.652236938476562500e+00	3.952238708734512329e-02
3.861137032508850098e-01	3.650331258773803711e+00	4.091968014836311340e-02
3.988375961780548096e-01	3.648380279541015625e+00	4.227546602487564087e-02
4.115529060363769531e-01	3.646355152130126953e+00	4.364321380853652954e-02
4.242607057094573975e-01	3.644152402877807617e+00	4.518503323197364807e-02
4.369635879993438721e-01	3.641680717468261719e+00	4.688360542058944702e-02
4.496569931507110596e-01	3.638858795166015625e+00	4.871995002031326294e-02
4.623447060585021973e-01	3.635734558105468750e+00	5.059183016419410706e-02
4.750257134437561035e-01	3.632378816604614258e+00	5.250936746597290039e-02
4.876999855041503906e-01	3.628833770751953125e+00	5.447739735245704651e-02
5.003677010536193848e-01	3.625211954116821289e+00	5.649882182478904724e-02
5.130295753479003906e-01	3.621629476547241211e+00	5.860499665141105652e-02
5.256838798522949219e-01	3.618162393569946289e+00	6.080907955765724182e-02
5.383334755897521973e-01	3.614818096160888672e+00	6.312123686075210571e-02
5.509781837463378906e-01	3.611644268035888672e+00	6.547369062900543213e-02
5.636153817176818848e-01	3.608773231506347656e+00	6.780589371919631958e-02
5.762478113174438477e-01	3.606269836425781250e+00	7.007490843534469604e-02
5.888754129409790039e-01	3.604070901870727539e+00	7.235750555992126465e-02
6.014962792396545410e-01	3.602065563201904297e+00	7.464983314275741577e-02
6.141123771667480469e-01	3.600190162658691406e+00	7.684110105037689209e-02
6.267247796058654785e-01	3.598492145538330078e+00	7.893736660480499268e-02
6.393296122550964355e-01	3.597015857696533203e+00	8.095995336771011353e-02
6.519305109977722168e-01	3.595727682113647461e+00	8.295871317386627197e-02
6.645274758338928223e-01	3.594547748565673828e+00	8.498630672693252563e-02
6.771187782287597656e-01	3.593352794647216797e+00	8.704333752393722534e-02
6.897072792053222656e-01	3.592156410217285156e+00	8.912008255720138550e-02
7.022882103919982910e-01	3.591034889221191406e+00	9.131348133087158203e-02
7.148681282997131348e-01	3.589950084686279297e+00	9.365560114383697510e-02
7.274423241615295410e-01	3.588818073272705078e+00	9.609729051589965820e-02
7.400118112564086914e-01	3.587542295455932617e+00	9.851545095443725586e-02
7.525783181190490723e-01	3.586220979690551758e+00	1.008446142077445984e-01
7.651400566101074219e-01	3.584892272949218750e+00	1.030977368354797363e-01
7.776980996131896973e-01	3.583624601364135742e+00	1.053711995482444763e-01
7.902522087097167969e-01	3.582468271255493164e+00	1.076673120260238647e-01
8.028026223182678223e-01	3.581467628479003906e+00	1.099038273096084595e-01
8.153500556945800781e-01	3.580572366714477539e+00	1.120584383606910706e-01
8.278939127922058105e-01	3.579722404479980469e+00	1.141040697693824768e-01
8.404335975646972656e-01	3.578963756561279297e+00	1.161091402173042297e-01
8.529696464538574219e-01	3.578294992446899414e+00	1.181264743208885193e-01
8.655037283897399902e-01	3.577678203582763672e+00	1.201734542846679688e-01
8.780332207679748535e-01	3.577202796936035156e+00	1.222165673971176147e-01
8.905596733093261719e-01	3.576866626739501953e+00	1.242423579096794128e-01
9.030833840370178223e-01	3.576614379882812500e+00	1.262828409671783447e-01
9.156051278114318848e-01	3.576443672180175781e+00	1.282686889171600342e-01
9.281229376792907715e-01	3.576442718505859375e+00	1.301984935998916626e-01
9.406371116638183594e-01	3.576685905456542969e+00	1.320511996746063232e-01
9.531490206718444824e-01	3.577192544937133789e+00	1.338281184434890747e-01
9.656580090522766113e-01	3.578000307083129883e+00	1.355125010013580322e-01
9.781649708747863770e-01	3.579106330871582031e+00	1.370924264192581177e-01
9.906679987907409668e-01	3.580529928207397461e+00	1.386162489652633667e-01
1.003170013427734375e+00	3.582182645797729492e+00	1.401125490665435791e-01
1.015666961669921875e+00	3.584054231643676758e+00	1.416012644767761230e-01
1.028162956237792969e+00	3.586044788360595703e+00	1.430332809686660767e-01
1.040657043457031250e+00	3.588194131851196289e+00	1.444474011659622192e-01
1.053148031234741211e+00	3.590449333190917969e+00	1.458009928464889526e-01
1.065636038780212402e+00	3.592905998229980469e+00	1.471513956785202026e-01
1.078122973442077637e+00	3.595461845397949219e+00	1.483708769083023071e-01
1.090605974197387695e+00	3.598286628723144531e+00	1.496721804141998291e-01
1.103088974952697754e+00	3.601104736328125000e+00	1.507668197154998779e-01
1.115568041801452637e+00	3.604054450988769531e+00	1.517417728900909424e-01
1.128044009208679199e+00	3.607090473175048828e+00	1.525657922029495239e-01
1.140519022941589355e+00	3.610240459442138672e+00	1.533025503158569336e-01
1.152992010116577148e+00	3.613514900207519531e+00	1.539392173290252686e-01
1.165462970733642578e+00	3.616886615753173828e+00	1.544922888278961182e-01
1.177932024002075195e+00	3.620330333709716797e+00	1.549343913793563843e-01
1.190397977828979492e+00	3.623860597610473633e+00	1.552456617355346680e-01
1.202862024307250977e+00	3.627504587173461914e+00	1.554014980792999268e-01
1.215327024459838867e+00	3.631273031234741211e+00	1.554176062345504761e-01
1.227787017822265625e+00	3.635169029235839844e+00	1.553188860416412354e-01
1.240244984626770020e+00	3.639143228530883789e+00	1.551711708307266235e-01
1.252701997756958008e+00	3.643156290054321289e+00	1.549956351518630981e-01
1.265156984329223633e+00	3.647203207015991211e+00	1.548037528991699219e-01
1.277609944343566895e+00	3.651281118392944336e+00	1.545893549919128418e-01
1.290061950683593750e+00	3.655378580093383789e+00	1.544276475906372070e-01
1.302512049674987793e+00	3.659528970718383789e+00	1.543787270784378052e-01
1.314960002899169922e+00	3.663727998733520508e+00	1.545304954051971436e-01
1.327406048774719238e+00	3.667994499206542969e+00	1.548477113246917725e-01
1.339849948883056641e+00	3.672317981719970703e+00	1.553801745176315308e-01
1.352293968200683594e+00	3.676727294921875000e+00	1.561462879180908203e-01
